# number of size bins = 100
# 0:size [cm], masses (1:Al2O3, 2:Fe, 3:Fe3O4, 4:MgSiO3, 5:Mg2SiO4, 6:AC, 7:SiO2) [g]
1.000000e-07	2.413892e-56	4.979047e-56	3.225036e-56	5.672306e+23	3.411566e+25	1.946211e+17	1.556036e+26
1.056876e-07	2.849644e-56	5.877855e-56	3.807213e-56	6.396607e+23	6.565339e+24	3.295834e+17	3.677287e+26
1.116988e-07	3.364056e-56	6.938915e-56	4.494484e-56	5.485820e+23	4.813292e+24	6.492794e+16	1.268850e+27
1.180518e-07	3.971329e-56	8.191515e-56	5.305820e-56	1.171477e+23	3.442510e-56	3.769164e+16	2.527005e+27
1.247662e-07	4.688226e-56	9.670232e-56	6.263617e-56	3.892574e-56	4.063945e-56	5.704272e+16	2.540469e+20
1.318624e-07	5.534536e-56	1.141588e-55	7.394314e-56	4.595254e-56	4.797561e-56	1.648563e+15	6.905393e+09
1.393623e-07	6.533620e-56	1.347666e-55	8.729121e-56	5.424781e-56	5.663608e-56	2.664987e+13	7.420789e-02
1.472887e-07	7.713057e-56	1.590944e-55	1.030489e-55	2.302936e+21	6.685992e-56	1.032856e+17	5.336711e-56
1.556660e-07	9.105404e-56	1.878138e-55	1.216510e-55	7.560100e-56	7.892935e-56	5.230258e-56	6.300084e-56
1.645197e-07	1.074909e-55	2.217176e-55	1.436113e-55	8.924835e-56	9.317753e-56	6.174414e-56	7.437363e-56
1.738770e-07	1.268950e-55	2.617417e-55	1.695357e-55	1.053593e-55	1.099978e-55	7.289008e-56	8.779942e-56
1.837665e-07	1.498019e-55	3.089908e-55	2.001400e-55	1.243786e-55	1.298544e-55	8.604806e-56	1.036488e-55
1.942185e-07	1.768438e-55	3.647692e-55	2.362689e-55	1.468312e-55	1.532954e-55	1.015813e-55	1.223593e-55
2.052650e-07	2.087673e-55	4.306167e-55	2.789197e-55	1.733368e-55	1.809680e-55	1.199186e-55	1.444474e-55
2.169397e-07	2.464536e-55	5.083508e-55	3.292697e-55	2.046273e-55	2.136360e-55	1.415660e-55	1.705227e-55
2.292785e-07	2.909430e-55	6.001173e-55	3.887089e-55	2.415662e-55	2.522012e-55	1.671213e-55	2.013052e-55
2.423190e-07	3.434634e-55	7.084494e-55	4.588779e-55	2.851733e-55	2.977281e-55	1.972897e-55	2.376444e-55
2.561013e-07	4.054648e-55	8.363374e-55	5.417137e-55	3.366523e-55	3.514734e-55	1.639435e+24	2.805435e-55
2.706674e-07	4.786586e-55	9.873114e-55	6.395029e-55	3.974241e-55	4.149208e-55	2.028081e+24	3.311867e-55
2.860620e-07	5.650651e-55	1.165539e-54	7.549447e-55	4.691663e-55	8.025487e+20	3.245805e-55	3.909720e-55
3.023322e-07	6.670696e-55	1.375940e-54	8.912259e-55	5.538594e-55	5.782431e-55	5.525841e+24	4.615495e-55
3.195278e-07	7.874878e-55	1.624322e-54	1.052108e-54	6.538410e-55	6.826265e-55	7.363540e+24	5.448675e-55
3.377014e-07	9.296436e-55	1.917542e-54	1.242033e-54	7.718712e-55	8.058530e-55	5.677333e+24	6.432260e-55
3.569087e-07	1.097461e-54	2.263693e-54	1.466243e-54	9.112080e-55	9.513240e-55	6.303955e-55	7.593400e-55
3.772084e-07	1.295573e-54	2.672330e-54	1.730926e-54	1.075698e-54	1.123055e-54	7.441933e-55	8.964146e-55
3.986626e-07	1.529447e-54	3.154734e-54	2.043389e-54	1.269880e-54	1.325787e-54	8.785336e-55	1.058234e-54
4.213371e-07	1.805540e-54	3.724221e-54	2.412258e-54	1.499117e-54	1.565116e-54	1.037125e-54	1.249264e-54
4.453013e-07	2.131473e-54	4.396511e-54	2.847715e-54	1.769735e-54	1.847648e-54	1.224345e-54	1.474779e-54
4.706285e-07	2.516242e-54	5.190161e-54	3.361779e-54	2.089204e-54	2.181181e-54	1.445361e-54	1.741003e-54
4.973961e-07	2.970470e-54	6.127079e-54	3.968641e-54	2.466343e-54	2.574924e-54	1.317464e+25	2.055286e-54
5.256863e-07	3.506694e-54	7.233128e-54	4.685052e-54	2.911563e-54	3.039745e-54	2.014289e-54	2.426302e-54
5.555854e-07	4.139715e-54	8.538838e-54	5.530789e-54	3.437153e-54	3.588474e-54	2.263089e+25	2.864294e-54
5.871852e-07	4.887009e-54	1.008025e-53	6.529197e-54	4.057621e-54	5.920912e+20	1.292712e+26	3.381351e-54
6.205822e-07	5.769203e-54	1.189992e-53	7.707836e-54	4.790095e-54	5.000980e-54	1.196397e+26	3.991746e-54
6.558787e-07	6.810648e-54	1.404807e-53	9.099240e-54	5.654794e-54	5.903747e-54	3.912122e-54	4.712329e-54
6.931827e-07	8.040094e-54	1.658401e-53	1.074182e-53	6.675587e-54	6.969481e-54	1.424470e+25	5.562989e-54
7.326085e-07	9.491477e-54	1.957772e-53	7.685239e-19	3.733608e-08	8.227599e-54	2.062749e+26	6.567210e-54
7.742767e-07	1.120486e-53	2.311185e-53	1.497004e-53	9.303252e-54	9.712829e-54	2.379188e+26	7.752710e-54
8.183148e-07	1.322754e-53	2.728396e-53	1.767241e-53	1.098266e-53	1.146617e-53	1.027383e+26	9.152215e-54
8.648576e-07	1.561535e-53	3.220921e-53	2.086260e-53	1.296523e-53	1.353602e-53	8.969654e-54	1.080436e-53
9.140477e-07	1.843421e-53	3.802356e-53	2.462868e-53	1.530569e-53	1.597952e-53	1.187312e+27	1.275474e-53
9.660355e-07	2.176191e-53	4.488750e-53	3.970298e-34	1.426668e-18	1.886411e-53	9.128184e+22	1.505720e-53
1.020980e-06	2.569034e-53	5.299051e-53	3.432309e-53	2.133036e-53	2.226943e-53	9.515955e+26	1.777530e-53
1.079050e-06	3.032791e-53	6.255626e-53	4.051903e-53	2.518087e-53	2.628946e-53	1.101211e+27	2.098406e-53
1.140422e-06	3.580264e-53	7.384880e-53	4.783345e-53	2.972648e-53	3.103519e-53	1.593912e+25	2.477206e-53
1.205286e-06	4.226567e-53	8.717984e-53	5.646826e-53	3.509265e-53	3.663760e-53	1.395586e+27	2.924387e-53
1.273838e-06	4.989539e-53	1.029174e-52	6.666181e-53	4.142750e-53	4.325136e-53	2.102795e+27	3.452292e-53
1.346289e-06	5.890241e-53	1.214958e-52	7.869547e-53	4.890592e-53	7.558186e+17	5.012977e+26	4.075493e-53
1.422861e-06	6.953537e-53	1.434280e-52	9.290143e-53	5.773433e-53	6.027609e-53	1.100361e+27	4.811194e-53
1.503789e-06	8.208776e-53	1.693194e-52	1.096718e-52	6.815642e-53	7.115702e-53	1.189934e+27	5.679702e-53
1.589319e-06	9.690609e-53	1.998846e-52	1.294696e-52	8.045989e-53	8.400215e-53	3.273048e+25	6.704991e-53
1.679714e-06	1.143994e-52	2.359674e-52	1.528412e-52	9.498436e-53	9.916606e-53	2.907311e+26	7.915363e-53
1.775250e-06	1.350506e-52	2.785638e-52	1.804318e-52	1.121308e-52	2.914742e+15	7.757474e-53	9.344230e-53
1.876220e-06	1.594296e-52	3.288497e-52	2.130030e-52	1.323724e-52	1.382001e-52	2.629974e+27	1.103103e-52
1.982933e-06	1.882096e-52	3.882130e-52	2.514539e-52	1.562680e-52	1.631477e-52	1.572882e+26	1.302233e-52
2.095715e-06	2.221848e-52	4.582925e-52	2.968459e-52	1.844772e-52	1.925989e-52	5.047404e+27	1.537310e-52
2.214912e-06	2.622932e-52	5.410226e-52	3.504320e-52	2.177787e-52	2.273664e-52	1.506645e-52	1.814823e-52
2.340888e-06	3.096419e-52	6.386870e-52	4.136913e-52	2.570917e-52	2.684102e-52	5.007955e+26	2.142431e-52
2.474029e-06	3.655379e-52	7.539815e-52	4.883701e-52	3.035014e-52	3.168631e-52	2.099695e-52	2.529179e-52
2.614743e-06	4.315241e-52	8.900889e-52	5.765297e-52	3.582889e-52	3.740627e-52	1.578474e+26	2.985741e-52
2.763461e-06	5.094220e-52	1.050766e-51	6.806038e-52	4.229666e-52	4.415878e-52	1.318477e+28	3.524722e-52
2.920636e-06	6.013819e-52	1.240448e-51	8.034651e-52	4.993197e-52	5.213024e-52	2.177827e+26	4.160998e-52
3.086752e-06	7.099423e-52	1.464372e-51	9.485051e-52	5.894560e-52	6.154069e-52	9.629458e+27	4.912133e-52
3.262315e-06	8.380997e-52	1.728717e-51	1.119728e-51	6.958635e-52	7.264990e-52	1.224500e+26	5.798862e-52
3.447864e-06	9.893920e-52	2.040782e-51	1.321859e-51	8.214795e-52	8.576452e-52	1.438317e+26	6.845662e-52
3.643967e-06	1.167995e-51	2.409181e-51	1.560478e-51	9.697714e-52	1.012466e-51	1.122572e+27	8.081429e-52
3.851222e-06	1.378839e-51	2.844081e-51	1.842173e-51	1.144833e-51	1.195234e-51	1.944566e+26	9.540273e-52
4.070266e-06	1.627745e-51	3.357490e-51	2.174718e-51	1.351496e-51	1.410996e-51	1.694604e+26	1.126247e-51
4.301769e-06	1.921582e-51	3.963577e-51	2.567294e-51	1.595465e-51	1.665706e-51	5.881905e+26	1.329554e-51
4.546438e-06	2.268463e-51	4.679075e-51	3.030738e-51	1.883476e-51	1.966396e-51	1.303034e-51	1.569563e-51
4.805023e-06	2.677962e-51	5.523733e-51	3.577841e-51	2.223477e-51	2.321366e-51	3.073456e+26	1.852898e-51
5.078316e-06	3.161382e-51	6.520867e-51	4.223706e-51	2.624855e-51	2.740415e-51	5.079062e+25	2.187379e-51
5.367152e-06	3.732069e-51	7.698002e-51	4.986161e-51	3.098689e-51	3.235110e-51	3.426129e+25	2.582241e-51
5.672417e-06	4.405775e-51	9.087631e-51	5.886254e-51	3.658059e-51	3.819106e-51	1.189196e+26	3.048382e-51
5.995044e-06	5.201098e-51	1.072811e-50	6.948829e-51	4.318405e-51	4.508523e-51	5.627605e+24	3.598671e-51
6.336021e-06	6.139990e-51	1.266473e-50	8.203219e-51	5.097955e-51	5.322394e-51	3.916628e+25	4.248296e-51
6.696391e-06	7.248370e-51	1.495095e-50	9.684049e-51	6.018229e-51	6.283182e-51	3.036605e+24	5.015191e-51
7.077258e-06	8.556832e-51	1.764986e-50	1.143220e-50	7.104628e-51	7.417410e-51	7.062172e+24	5.920523e-51
7.479787e-06	1.010150e-50	2.083598e-50	1.349591e-50	8.387142e-51	8.756388e-51	2.290941e+24	6.989285e-51
7.905211e-06	1.192500e-50	2.459726e-50	1.593217e-50	9.901174e-51	1.033707e-50	6.849869e-51	8.250978e-51
8.354832e-06	1.407768e-50	2.903751e-50	1.880822e-50	1.168851e-50	1.220310e-50	3.821135e+23	9.740429e-51
8.830025e-06	1.661895e-50	3.427930e-50	2.220344e-50	1.379850e-50	1.440599e-50	5.772907e+21	1.149875e-50
9.332245e-06	1.961898e-50	4.046734e-50	2.621157e-50	1.628938e-50	1.700653e-50	4.098806e+22	6.732570e-24
9.863030e-06	2.316056e-50	4.777243e-50	3.094323e-50	1.922991e-50	2.007651e-50	2.400608e+21	7.868443e-24
1.042400e-05	2.734146e-50	5.639622e-50	3.652904e-50	5.643708e-24	1.175489e-23	1.570528e-50	1.891772e-50
1.101688e-05	3.227709e-50	6.657676e-50	4.312320e-50	1.978796e-23	1.373809e-23	1.787610e+20	2.233271e-50
1.164349e-05	3.810368e-50	7.859507e-50	5.024515e-23	3.163700e-50	3.302983e-50	4.003275e+18	2.636417e-50
1.230573e-05	4.498209e-50	9.278290e-50	6.009748e-50	3.734805e-50	3.899231e-50	8.657576e+15	3.112338e-50
1.300563e-05	5.310217e-50	1.095319e-49	7.094617e-50	4.409006e-50	4.603113e-50	3.996622e+16	3.674171e-50
1.374535e-05	6.268808e-50	6.413140e-23	8.375324e-50	5.204911e-50	5.434058e-50	3.797789e+14	4.337426e-50
1.452713e-05	7.400441e-50	7.495121e-23	9.887222e-50	6.144492e-50	6.415004e-50	5.867375e+11	5.120410e-50
1.535338e-05	8.736355e-50	1.802016e-49	1.167204e-49	7.253684e-50	7.573029e-50	7.478512e+07	6.044737e-50
1.622663e-05	7.653563e-23	2.127312e-49	1.377906e-49	8.563106e-50	8.940098e-50	2.168522e+08	7.135921e-50
1.714954e-05	2.981556e-23	2.511331e-49	1.626643e-49	1.010890e-49	1.055395e-49	4.774149e+03	8.424085e-50
1.812495e-05	1.437303e-49	2.964672e-49	1.920282e-49	1.193374e-49	1.245913e-49	3.563551e-02	9.944785e-50
1.915583e-05	1.696762e-49	3.499849e-49	2.266927e-49	1.408800e-49	1.470822e-49	9.746414e-50	1.174000e-49
2.024535e-05	2.003058e-49	4.131635e-49	2.676149e-49	1.663114e-49	1.736333e-49	1.150582e-49	1.385928e-49
2.139683e-05	2.364647e-49	4.877470e-49	3.159242e-49	1.963336e-49	2.049772e-49	1.358283e-49	1.636113e-49
2.261381e-05	2.791508e-49	5.757942e-49	3.729543e-49	2.317754e-49	2.419793e-49	1.603477e-49	1.931461e-49
2.390000e-05	3.295426e-49	6.797354e-49	4.402793e-49	2.736150e-49	2.856610e-49	1.892934e-49	2.280125e-49
