# number of size bins = 400
# 0:size [cm], masses (1:Al2O3, 2:Fe, 3:Fe3O4, 4:MgSiO3, 5:Mg2SiO4, 6:AC, 7:SiO2) [g]
1.000000e-07	2.413892e-56	2.492757e+25	3.225036e-56	2.004224e-56	2.092460e-56	5.295561e+09	1.670187e-56
3.000000e-07	6.517509e-55	3.980764e+27	8.707597e-55	5.411405e-55	5.649643e-55	3.743739e-55	4.509504e-55
5.000000e-07	3.017365e-54	3.780340e+28	4.031295e-54	2.505280e-54	2.615575e-54	1.733213e-54	2.087733e-54
7.000000e-07	8.279651e-54	1.486003e+29	1.106187e-53	6.874488e-54	7.177139e-54	4.755935e-54	5.728740e-54
9.000000e-07	1.759728e-53	3.855492e+29	2.351051e-53	1.461079e-53	1.525403e-53	1.010810e-53	1.217566e-53
1.100000e-06	3.212891e-53	7.333898e+29	4.292523e-53	2.667622e-53	2.785065e-53	1.845525e-53	2.223018e-53
1.300000e-06	5.303322e-53	1.302058e+30	7.085404e-53	4.403280e-53	4.597135e-53	3.046294e-53	3.669400e-53
1.500000e-06	8.146887e-53	1.864617e+30	1.088450e-52	6.764256e-53	7.062053e-53	4.679674e-53	5.636880e-53
1.700000e-06	1.185945e-52	2.573320e+30	1.584460e-52	9.846752e-53	1.028026e-52	6.812219e-53	8.205627e-53
1.900000e-06	1.655689e-52	3.362008e+30	2.212052e-52	1.374697e-52	1.435218e-52	9.510484e-53	1.145581e-52
2.100000e-06	2.235506e-52	4.075480e+30	2.986706e-52	1.856112e-52	1.937827e-52	1.284102e-52	1.546760e-52
2.300000e-06	2.936983e-52	4.958354e+30	3.923901e-52	2.438539e-52	2.545896e-52	1.687040e-52	2.032116e-52
2.500000e-06	3.771707e-52	5.490677e+30	5.039118e-52	3.131600e-52	3.269469e-52	2.166516e-52	2.609667e-52
2.700000e-06	4.751264e-52	5.888134e+30	6.347838e-52	3.944914e-52	4.118589e-52	2.729186e-52	3.287428e-52
2.900000e-06	5.887242e-52	6.880806e+30	7.865540e-52	4.888102e-52	5.103301e-52	3.381706e-52	4.073418e-52
3.100000e-06	7.191227e-52	6.614113e+30	9.607704e-52	5.970784e-52	6.233648e-52	3.144158e-39	4.975653e-52
3.300000e-06	8.674805e-52	7.479949e+30	1.158981e-51	7.202580e-52	7.519674e-52	1.842736e-34	6.002150e-52
3.500000e-06	1.034956e-51	7.369862e+30	1.382734e-51	8.593110e-52	8.971423e-52	2.514019e-17	7.160925e-52
3.700000e-06	1.222709e-51	8.084556e+30	1.633577e-51	1.015200e-51	1.059894e-51	2.224321e-13	8.459996e-52
3.900000e-06	1.431897e-51	7.761717e+30	1.913059e-51	1.188886e-51	1.241226e-51	8.672324e-10	9.907380e-52
4.100000e-06	1.663679e-51	7.410731e+30	2.222727e-51	1.381331e-51	1.442145e-51	8.356647e+03	1.151109e-51
4.300000e-06	1.919213e-51	7.983322e+30	2.564129e-51	1.593498e-51	1.663652e-51	2.677507e+03	1.327915e-51
4.500000e-06	2.199659e-51	7.501245e+30	2.938814e-51	1.826349e-51	1.906754e-51	4.323437e+05	1.521958e-51
4.700000e-06	2.506175e-51	5.888562e+30	3.348329e-51	2.080845e-51	2.172455e-51	2.062419e+06	1.734038e-51
4.900000e-06	2.839920e-51	2.267502e+30	3.794222e-51	2.357949e-51	2.461759e-51	2.643492e+07	1.964958e-51
5.100000e-06	3.202052e-51	2.018741e+30	4.278042e-51	2.658623e-51	2.775669e-51	2.477057e+09	2.215519e-51
5.300000e-06	3.593731e-51	1.788692e+30	4.801337e-51	2.983828e-51	3.115192e-51	1.624190e+10	2.486524e-51
5.500000e-06	4.016113e-51	1.577989e+30	5.365653e-51	3.334528e-51	3.481331e-51	3.194784e+11	2.778773e-51
5.700000e-06	4.470360e-51	1.304013e+30	5.972541e-51	3.711682e-51	3.875090e-51	1.822280e+12	3.093069e-51
5.900000e-06	4.957628e-51	1.233307e+30	6.623546e-51	4.116255e-51	4.297474e-51	7.247478e+13	3.430213e-51
6.100000e-06	5.479077e-51	1.012105e+30	7.320219e-51	4.549208e-51	4.749487e-51	1.135359e+15	3.791006e-51
6.300000e-06	6.035865e-51	8.944471e+29	8.064105e-51	5.011502e-51	5.232134e-51	4.275711e+16	4.176252e-51
6.500000e-06	6.629152e-51	7.882131e+29	8.856755e-51	5.504100e-51	5.746419e-51	3.993437e+16	4.586750e-51
6.700000e-06	7.260095e-51	6.927578e+29	9.699714e-51	6.027964e-51	6.293346e-51	1.931246e+17	5.023303e-51
6.900000e-06	7.929854e-51	6.073624e+29	1.059453e-50	6.584056e-51	6.873920e-51	5.057643e+17	5.486713e-51
7.100000e-06	4.644300e+27	4.970661e+29	1.154276e-50	7.173338e-51	7.489145e-51	2.391938e+18	5.977782e-51
7.300000e-06	9.390452e-51	4.710312e+29	1.254594e-50	7.796772e-51	8.140026e-51	8.814155e+18	6.497310e-51
7.500000e-06	1.018361e-50	3.705160e+29	1.360562e-50	8.455320e-51	8.827567e-51	2.597905e+19	7.046100e-51
7.700000e-06	1.102022e-50	1.619933e+29	1.472335e-50	9.149944e-51	9.552771e-51	8.872793e+19	7.624953e-51
7.900000e-06	1.190143e-50	1.297674e+29	1.590068e-50	9.881606e-51	1.031664e-50	1.537680e+19	8.234671e-51
8.100000e-06	1.282841e-50	1.037832e+29	1.713916e-50	1.065127e-50	1.112019e-50	1.956030e+23	8.876056e-51
8.300000e-06	1.380232e-50	8.287491e+28	1.844034e-50	1.145989e-50	1.196442e-50	3.104296e+22	9.549910e-51
8.500000e-06	1.482432e-50	6.608349e+28	1.980575e-50	1.230844e-50	1.285032e-50	4.537012e+22	1.025703e-50
8.700000e-06	1.589555e-50	5.262261e+28	2.123696e-50	1.319787e-50	1.377891e-50	9.627031e+22	1.099823e-50
8.900000e-06	1.701719e-50	3.905336e+28	2.273550e-50	1.412916e-50	1.475120e-50	2.415810e+23	1.177430e-50
9.100000e-06	1.819039e-50	3.400999e+28	2.430293e-50	1.510325e-50	1.576817e-50	1.986586e+24	1.258604e-50
9.300000e-06	1.941631e-50	2.517973e+28	2.594080e-50	1.612112e-50	1.683085e-50	1.520436e+24	1.343426e-50
9.500000e-06	2.069611e-50	2.187822e+28	2.765065e-50	1.718372e-50	1.794023e-50	1.420037e+24	1.431976e-50
9.700000e-06	2.203094e-50	1.371414e+28	2.943403e-50	1.829201e-50	1.909732e-50	3.063336e+24	1.524334e-50
9.900000e-06	2.342197e-50	7.436142e+27	3.129249e-50	1.944696e-50	2.030312e-50	3.883299e+24	1.620580e-50
1.010000e-05	2.487036e-50	5.489171e+27	3.322758e-50	2.064954e-50	2.155864e-50	5.662959e+24	1.720795e-50
1.030000e-05	2.637725e-50	3.764453e+27	3.524084e-50	2.190070e-50	2.286488e-50	1.095510e+25	1.825058e-50
1.050000e-05	2.794382e-50	3.075251e+27	3.733382e-50	2.320140e-50	2.422284e-50	1.734785e+25	1.933450e-50
1.070000e-05	2.957122e-50	2.264612e+27	3.950808e-50	2.455261e-50	2.563354e-50	2.728448e+25	2.046050e-50
1.090000e-05	3.126061e-50	1.666480e+27	4.176515e-50	2.595528e-50	2.709797e-50	4.262708e+25	2.162940e-50
1.110000e-05	3.301314e-50	1.139449e+27	4.410659e-50	2.741039e-50	2.861713e-50	6.583620e+25	2.284199e-50
1.130000e-05	3.482998e-50	9.281905e+26	4.653395e-50	2.891889e-50	3.019205e-50	1.011208e+26	2.409907e-50
1.150000e-05	3.671229e-50	4.222950e+26	4.904876e-50	3.048174e-50	3.182370e-50	1.541029e+26	2.540145e-50
1.170000e-05	3.866121e-50	2.934267e+26	5.165259e-50	3.209991e-50	3.351311e-50	2.327149e+26	2.674993e-50
1.190000e-05	4.067792e-50	2.037776e+26	5.434698e-50	3.377436e-50	3.526128e-50	3.465333e+26	2.814530e-50
1.210000e-05	4.276358e-50	1.414488e+26	5.713348e-50	3.550605e-50	3.706921e-50	4.996739e+26	2.958837e-50
1.230000e-05	4.491933e-50	9.813882e+25	6.001363e-50	3.729594e-50	3.893790e-50	7.186510e+26	3.107995e-50
1.250000e-05	4.714634e-50	6.806014e+25	6.298898e-50	3.914500e-50	4.086836e-50	1.055693e+27	3.262083e-50
1.270000e-05	4.944576e-50	4.628792e+25	6.606109e-50	4.105418e-50	4.286160e-50	9.507479e+26	3.421182e-50
1.290000e-05	5.181876e-50	2.337362e+25	6.923149e-50	4.302445e-50	4.491861e-50	1.977191e+27	3.585371e-50
1.310000e-05	5.426650e-50	1.378823e+25	7.250174e-50	4.505678e-50	4.704041e-50	2.665458e+27	3.754732e-50
1.330000e-05	5.679012e-50	9.874241e+24	7.587339e-50	4.715211e-50	4.922799e-50	3.782455e+27	3.929343e-50
1.350000e-05	5.939080e-50	5.821406e+24	7.934797e-50	4.931142e-50	5.148237e-50	3.973749e+27	4.109285e-50
1.370000e-05	6.206969e-50	4.166571e+24	8.292706e-50	5.153567e-50	5.380454e-50	6.825750e+27	4.294639e-50
1.390000e-05	6.482795e-50	2.319540e+24	8.661217e-50	5.382582e-50	5.619551e-50	7.077860e+27	4.485485e-50
1.410000e-05	6.766674e-50	1.215289e+24	9.040488e-50	5.618283e-50	5.865628e-50	1.111101e+28	4.681902e-50
1.430000e-05	7.058721e-50	7.452638e+23	9.430672e-50	5.860766e-50	6.118787e-50	1.624561e+28	4.883971e-50
1.450000e-05	7.359053e-50	4.906834e+23	9.831925e-50	6.110127e-50	6.379127e-50	1.628230e+28	5.091773e-50
1.470000e-05	7.667785e-50	2.656598e+23	1.024440e-49	6.366463e-50	6.646748e-50	2.864775e+28	5.305386e-50
1.490000e-05	7.985033e-50	1.552283e+23	1.066825e-49	6.629871e-50	6.921752e-50	1.540576e+28	5.524892e-50
1.510000e-05	8.310913e-50	7.703936e+22	1.110364e-49	6.900445e-50	7.204238e-50	5.122711e+28	5.750371e-50
1.530000e-05	8.645541e-50	4.031451e+22	1.155071e-49	7.178282e-50	7.494307e-50	1.884050e+28	5.981902e-50
1.550000e-05	8.989033e-50	2.619558e+22	1.200963e-49	7.463479e-50	7.792060e-50	7.523647e+28	6.219566e-50
1.570000e-05	9.341505e-50	1.481603e+22	1.248054e-49	7.756132e-50	8.097597e-50	3.773487e+29	6.463443e-50
1.590000e-05	9.703072e-50	6.536419e+21	1.296361e-49	8.056337e-50	8.411018e-50	1.826637e+29	6.713614e-50
1.610000e-05	1.007385e-49	3.835185e+21	1.345898e-49	8.364190e-50	8.732424e-50	9.219752e+28	6.970158e-50
1.630000e-05	1.045396e-49	2.000816e+21	1.396681e-49	8.679787e-50	9.061916e-50	4.976497e+29	7.233156e-50
1.650000e-05	1.084351e-49	9.577455e+20	1.448726e-49	9.003224e-50	9.399593e-50	2.239126e+29	7.502687e-50
1.670000e-05	1.124261e-49	4.505201e+20	1.502048e-49	9.334599e-50	9.745556e-50	2.089913e+29	7.778832e-50
1.690000e-05	1.165140e-49	2.513740e+20	1.556663e-49	9.674006e-50	1.009991e-49	2.342036e+29	8.061672e-50
1.710000e-05	1.206997e-49	1.125765e+20	1.612586e-49	1.002154e-49	1.046274e-49	2.399237e+30	8.351285e-50
1.730000e-05	1.249845e-49	5.461771e+19	1.669832e-49	1.037730e-49	1.083417e-49	2.142236e+29	8.647754e-50
1.750000e-05	1.293695e-49	2.473370e+19	1.728418e-49	1.074139e-49	1.121428e-49	6.100684e+29	8.951156e-50
1.770000e-05	1.338560e-49	1.193898e+19	1.788358e-49	1.111389e-49	1.160318e-49	2.329008e+29	9.261574e-50
1.790000e-05	1.384449e-49	5.515038e+18	1.849667e-49	1.149490e-49	1.200097e-49	3.686182e+29	9.579086e-50
1.810000e-05	1.431376e-49	2.324371e+18	1.912363e-49	1.188453e-49	1.240775e-49	7.978828e+29	9.903774e-50
1.830000e-05	1.479351e-49	1.042394e+18	1.976459e-49	1.228286e-49	1.282362e-49	9.799815e+29	1.023572e-49
1.850000e-05	1.528386e-49	4.366780e+17	2.041972e-49	1.268999e-49	1.324867e-49	9.459533e+29	1.057500e-49
1.870000e-05	1.578493e-49	1.748607e+17	2.108916e-49	1.310603e-49	1.368302e-49	5.223766e+29	1.092169e-49
1.890000e-05	1.629684e-49	6.761764e+16	2.177308e-49	1.353105e-49	1.412676e-49	7.885427e+29	1.127588e-49
1.910000e-05	1.681969e-49	2.965470e+16	2.247163e-49	1.396517e-49	1.457999e-49	6.689417e+29	1.163764e-49
1.930000e-05	1.735361e-49	1.147045e+16	2.318497e-49	1.440848e-49	1.504282e-49	9.394867e+29	1.200707e-49
1.950000e-05	1.789871e-49	3.915115e+15	2.391324e-49	1.486107e-49	1.551533e-49	1.120837e+30	1.238422e-49
1.970000e-05	1.845511e-49	1.632095e+15	2.465660e-49	1.532304e-49	1.599764e-49	6.079535e+29	1.276920e-49
1.990000e-05	1.902292e-49	5.340851e+14	2.541521e-49	1.579449e-49	1.648984e-49	2.486743e+30	1.316207e-49
2.010000e-05	1.960226e-49	1.932309e+14	2.618923e-49	1.627550e-49	1.699203e-49	8.832134e+29	1.356292e-49
2.030000e-05	2.019324e-49	7.662875e+13	2.697880e-49	1.676619e-49	1.750432e-49	1.396692e+30	1.397182e-49
2.050000e-05	2.079598e-49	2.147364e+13	2.778409e-49	1.726664e-49	1.802681e-49	1.421778e+30	1.438887e-49
2.070000e-05	2.141060e-49	7.443482e+12	2.860524e-49	1.777695e-49	1.855958e-49	1.097520e+30	1.481413e-49
2.090000e-05	2.203722e-49	2.380147e+12	2.944241e-49	1.829722e-49	1.910276e-49	1.436702e+30	1.524768e-49
2.110000e-05	2.267594e-49	7.653570e+11	3.029576e-49	1.882754e-49	1.965643e-49	1.650361e+30	1.568962e-49
2.130000e-05	2.332688e-49	2.434073e+11	3.116545e-49	1.936801e-49	2.022069e-49	2.447511e+30	1.614001e-49
2.150000e-05	2.399017e-49	5.632588e+10	3.205162e-49	1.991873e-49	2.079565e-49	1.706821e+30	1.659894e-49
2.170000e-05	2.466591e-49	1.503833e+10	3.295443e-49	2.047979e-49	2.138141e-49	1.199231e+30	1.706649e-49
2.190000e-05	2.535422e-49	5.017509e+09	3.387403e-49	2.105128e-49	2.197807e-49	1.190262e+30	1.754274e-49
2.210000e-05	2.605522e-49	1.300378e+09	3.481059e-49	2.163331e-49	2.258572e-49	2.102366e+30	1.802776e-49
2.230000e-05	2.676902e-49	3.195931e+08	3.576425e-49	2.222598e-49	2.320448e-49	7.517435e+29	1.852165e-49
2.250000e-05	2.749574e-49	7.434921e+07	3.673517e-49	2.282936e-49	2.383443e-49	1.199249e+31	1.902447e-49
2.270000e-05	2.823550e-49	1.636785e+07	3.772351e-49	2.344357e-49	2.447568e-49	2.759768e+30	1.953631e-49
2.290000e-05	2.898841e-49	3.293062e+06	3.872942e-49	2.406870e-49	2.512833e-49	1.196008e+30	2.005725e-49
2.310000e-05	2.975458e-49	8.534450e+05	3.975305e-49	2.470485e-49	2.579248e-49	2.384644e+30	2.058737e-49
2.330000e-05	3.053414e-49	1.611393e+05	4.079456e-49	2.535210e-49	2.646823e-49	1.012164e+30	2.112675e-49
2.350000e-05	3.132719e-49	2.724213e+04	4.185411e-49	2.601057e-49	2.715569e-49	1.652309e+30	2.167547e-49
2.370000e-05	3.213386e-49	6.002345e+03	4.293185e-49	2.668034e-49	2.785494e-49	5.892952e+30	2.223361e-49
2.390000e-05	3.295426e-49	9.011957e+02	4.402793e-49	2.736150e-49	2.856610e-49	1.433245e+30	2.280125e-49
2.410000e-05	3.378851e-49	1.769884e+02	4.514251e-49	2.805417e-49	2.928926e-49	1.275747e+30	2.337847e-49
2.430000e-05	3.463672e-49	2.332186e+01	4.627574e-49	2.875842e-49	3.002452e-49	1.549415e+30	2.396535e-49
2.450000e-05	3.549900e-49	3.876851e+00	4.742778e-49	2.947437e-49	3.077198e-49	2.523572e+30	2.456197e-49
2.470000e-05	3.637548e-49	6.297543e-01	4.859878e-49	3.020210e-49	3.153175e-49	5.156528e+30	2.516841e-49
2.490000e-05	3.726627e-49	6.682958e-02	4.978891e-49	3.094171e-49	3.230392e-49	1.300404e+30	2.578476e-49
2.510000e-05	3.817149e-49	9.053441e-03	5.099830e-49	3.169330e-49	3.308860e-49	1.972827e+30	2.641108e-49
2.530000e-05	3.909124e-49	1.141501e-03	5.222712e-49	3.245696e-49	3.388588e-49	2.874919e+30	2.704746e-49
2.550000e-05	4.002565e-49	1.328319e-04	5.347553e-49	3.323279e-49	3.469587e-49	1.617371e+30	2.769399e-49
2.570000e-05	4.097484e-49	1.438786e-05	5.474367e-49	3.402089e-49	3.551866e-49	7.079974e+30	2.835074e-49
2.590000e-05	4.193892e-49	1.431187e-06	5.603170e-49	3.482134e-49	3.635436e-49	2.568201e+30	2.901779e-49
2.610000e-05	4.291799e-49	1.335197e-07	5.733979e-49	3.563426e-49	3.720307e-49	2.683981e+30	2.969522e-49
2.630000e-05	4.391219e-49	7.208458e-09	5.866807e-49	3.645973e-49	3.806488e-49	1.768298e+30	3.038311e-49
2.650000e-05	4.492163e-49	8.188843e-10	6.001671e-49	3.729786e-49	3.893990e-49	3.304805e+31	3.108155e-49
2.670000e-05	4.594642e-49	5.566560e-11	6.138586e-49	3.814873e-49	3.982823e-49	1.700535e+30	3.179060e-49
2.690000e-05	4.698668e-49	3.403684e-12	6.277567e-49	3.901244e-49	4.072997e-49	2.402846e+30	3.251036e-49
2.710000e-05	4.804252e-49	1.871691e-13	6.418631e-49	3.988909e-49	4.164521e-49	3.735565e+30	3.324091e-49
2.730000e-05	4.911406e-49	9.099612e-15	6.561792e-49	4.077878e-49	4.257407e-49	2.484815e+30	3.398231e-49
2.750000e-05	5.020142e-49	3.887852e-16	6.707067e-49	4.168159e-49	4.351663e-49	3.960797e+30	3.473466e-49
2.770000e-05	5.130471e-49	1.429661e-17	6.854470e-49	4.259764e-49	4.447301e-49	1.954631e+30	3.549803e-49
2.790000e-05	5.242404e-49	7.867075e-19	7.004016e-49	4.352701e-49	4.544330e-49	2.237196e+31	3.627251e-49
2.810000e-05	5.355954e-49	2.260970e-20	7.155723e-49	4.446980e-49	4.642759e-49	1.699350e+30	3.705817e-49
2.830000e-05	5.471132e-49	5.462798e-22	7.309604e-49	4.542611e-49	4.742600e-49	1.673626e+30	3.785509e-49
2.850000e-05	5.587950e-49	2.039059e-23	7.465676e-49	4.639603e-49	4.843862e-49	1.910054e+30	3.866336e-49
2.870000e-05	5.706418e-49	3.606019e-25	7.623953e-49	4.737966e-49	4.946556e-49	2.120624e+30	3.948305e-49
2.890000e-05	5.826549e-49	1.005754e-26	7.784452e-49	4.837709e-49	5.050690e-49	3.285073e+30	4.031424e-49
2.910000e-05	5.948355e-49	1.256705e-28	7.947188e-49	4.938843e-49	5.156276e-49	3.092730e+30	4.115702e-49
2.930000e-05	6.071846e-49	2.536802e-30	8.112177e-49	5.041376e-49	5.263324e-49	2.722697e+30	4.201147e-49
2.950000e-05	6.197035e-49	2.126849e-32	8.279433e-49	5.145319e-49	5.371842e-49	3.579250e+30	4.287766e-49
2.970000e-05	6.323933e-49	2.972911e-34	8.448972e-49	5.250681e-49	5.481843e-49	2.151016e+30	4.375567e-49
2.990000e-05	6.452551e-49	3.481549e-36	8.620811e-49	5.357471e-49	5.593334e-49	3.854833e+30	4.464559e-49
3.010000e-05	6.582902e-49	1.454552e-38	8.794963e-49	5.465699e-49	5.706328e-49	2.620966e+30	4.554749e-49
3.030000e-05	6.714996e-49	1.385078e-48	8.971446e-49	5.575376e-49	5.820832e-49	4.443049e+30	4.646146e-49
3.050000e-05	6.848846e-49	1.412686e-48	9.150273e-49	5.686509e-49	5.936859e-49	2.606572e+30	4.738758e-49
3.070000e-05	6.984463e-49	1.440659e-48	9.331462e-49	5.799110e-49	6.054417e-49	3.115923e+30	4.832592e-49
3.090000e-05	7.121858e-49	1.469000e-48	9.515026e-49	5.913188e-49	6.173517e-49	2.817837e+30	4.927657e-49
3.110000e-05	7.261044e-49	1.497709e-48	9.700982e-49	6.028752e-49	6.294169e-49	2.773482e+30	5.023960e-49
3.130000e-05	7.402031e-49	1.526790e-48	9.889346e-49	6.145812e-49	6.416382e-49	6.035947e+30	5.121510e-49
3.150000e-05	7.544832e-49	1.556245e-48	1.008013e-48	6.264377e-49	6.540167e-49	1.594203e+30	5.220314e-49
3.170000e-05	7.689457e-49	1.586076e-48	1.027336e-48	6.384458e-49	6.665535e-49	1.221725e+31	5.320382e-49
3.190000e-05	7.835919e-49	1.616286e-48	1.046903e-48	6.506063e-49	6.792494e-49	6.911060e+30	5.421720e-49
3.210000e-05	7.984229e-49	1.646878e-48	1.066718e-48	6.629203e-49	6.921055e-49	2.131668e+30	5.524336e-49
3.230000e-05	8.134399e-49	1.677853e-48	1.086781e-48	6.753887e-49	7.051228e-49	2.420439e+30	5.628239e-49
3.250000e-05	8.286440e-49	1.709213e-48	1.107094e-48	6.880125e-49	7.183024e-49	3.819596e+30	5.733437e-49
3.270000e-05	8.440364e-49	1.740963e-48	1.127659e-48	7.007926e-49	7.316451e-49	2.931311e+30	5.839938e-49
3.290000e-05	8.596182e-49	1.773103e-48	1.148477e-48	7.137300e-49	7.451521e-49	2.177970e+30	5.947750e-49
3.310000e-05	8.753906e-49	1.805636e-48	1.169549e-48	7.268256e-49	7.588242e-49	4.904773e+30	6.056880e-49
3.330000e-05	8.913548e-49	1.838565e-48	1.190878e-48	7.400805e-49	7.726626e-49	1.860058e+30	6.167337e-49
3.350000e-05	9.075119e-49	1.871891e-48	1.212464e-48	7.534955e-49	7.866683e-49	7.573561e+29	6.279129e-49
3.370000e-05	9.238631e-49	1.905618e-48	1.234310e-48	7.670717e-49	8.008421e-49	3.108475e+31	6.392264e-49
3.390000e-05	9.404095e-49	1.939748e-48	1.256417e-48	7.808100e-49	8.151852e-49	8.230981e+29	6.506750e-49
3.410000e-05	9.571523e-49	1.974283e-48	1.278785e-48	7.947113e-49	8.296986e-49	6.613355e+29	6.622594e-49
3.430000e-05	9.740926e-49	2.009225e-48	1.301418e-48	8.087767e-49	8.443832e-49	3.866442e+30	6.739805e-49
3.450000e-05	9.912317e-49	2.044577e-48	1.324317e-48	8.230070e-49	8.592400e-49	6.187192e+29	6.858392e-49
3.470000e-05	1.008571e-48	2.080342e-48	1.347482e-48	8.374033e-49	8.742701e-49	2.512444e+30	6.978361e-49
3.490000e-05	1.026111e-48	2.116521e-48	1.370916e-48	8.519665e-49	8.894745e-49	6.775639e+30	7.099721e-49
3.510000e-05	1.043853e-48	2.153117e-48	1.394620e-48	8.666976e-49	9.048541e-49	2.047144e+30	7.222480e-49
3.530000e-05	1.061798e-48	2.190132e-48	1.418596e-48	8.815975e-49	9.204100e-49	3.204295e+30	7.346646e-49
3.550000e-05	1.079948e-48	2.227570e-48	1.442845e-48	8.966672e-49	9.361432e-49	5.127970e+30	7.472227e-49
3.570000e-05	1.098304e-48	2.265431e-48	1.467368e-48	9.119077e-49	9.520546e-49	3.143365e+30	7.599231e-49
3.590000e-05	1.116866e-48	2.303719e-48	1.492169e-48	9.273199e-49	9.681453e-49	4.375618e+30	7.727666e-49
3.610000e-05	1.135637e-48	2.342436e-48	1.517247e-48	9.429048e-49	9.844163e-49	4.537081e+30	7.857540e-49
3.630000e-05	1.154617e-48	2.381585e-48	1.542604e-48	9.586633e-49	1.000869e-48	4.101011e+30	7.988861e-49
3.650000e-05	1.173806e-48	2.421167e-48	1.568242e-48	9.745965e-49	1.017503e-48	3.967350e+30	8.121637e-49
3.670000e-05	1.193208e-48	2.461186e-48	1.594163e-48	9.907052e-49	1.034321e-48	4.955408e+30	8.255877e-49
3.690000e-05	1.212822e-48	2.501643e-48	1.620368e-48	1.006990e-48	1.051323e-48	4.822300e+30	8.391587e-49
3.710000e-05	1.232650e-48	2.542541e-48	1.646858e-48	1.023453e-48	1.068511e-48	3.599095e+30	8.528776e-49
3.730000e-05	1.252692e-48	2.583882e-48	1.673636e-48	1.040094e-48	1.085885e-48	5.047482e+30	8.667453e-49
3.750000e-05	1.272951e-48	2.625669e-48	1.700702e-48	1.056915e-48	1.103446e-48	4.384553e+30	8.807625e-49
3.770000e-05	1.293427e-48	2.667904e-48	1.728059e-48	1.073916e-48	1.121195e-48	2.071583e+30	8.949300e-49
3.790000e-05	1.314122e-48	2.710590e-48	1.755708e-48	1.091098e-48	1.139134e-48	1.982204e+30	9.092486e-49
3.810000e-05	1.335036e-48	2.753729e-48	1.783649e-48	1.108463e-48	1.157263e-48	4.487775e+30	9.237191e-49
