# number of size bins = 100
# 0:size [cm], masses (1:Al2O3, 2:Fe, 3:Fe3O4, 4:MgSiO3, 5:Mg2SiO4, 6:AC, 7:SiO2) [g]
1.000000e-07	2.413892e-56	4.979047e-56	3.225036e-56	2.004224e-56	2.092460e-56	3.107428e-04	1.670187e-56
1.082994e-07	3.066167e-56	2.761944e+05	4.096496e-56	2.545800e-56	2.657879e-56	8.491448e-06	2.121500e-56
1.172876e-07	3.894698e-56	8.033451e-56	5.203439e-56	3.233718e-56	3.376083e-56	1.247387e-08	2.694765e-56
1.270217e-07	4.947112e-56	1.020423e-55	6.609497e-56	4.107524e-56	4.288359e-56	5.801327e-28	3.422937e-56
1.375637e-07	6.283907e-56	1.296158e-55	8.395497e-56	5.217448e-56	5.447146e-56	3.609555e-56	4.347873e-56
1.489807e-07	7.981926e-56	2.377558e+06	1.066410e-55	6.627291e-56	6.919059e-56	1.917641e-14	5.522743e-56
1.613452e-07	1.013878e-55	2.091289e-55	1.354573e-55	8.418099e-56	8.788707e-56	5.823842e-56	7.015082e-56
1.747358e-07	1.287845e-55	3.868298e+06	1.720601e-55	1.069281e-55	1.116357e-55	7.397544e-56	8.910678e-56
1.892378e-07	1.635843e-55	1.585409e+06	2.185537e-55	1.358219e-55	1.418015e-55	9.396487e-56	1.131850e-55
2.049434e-07	2.077876e-55	4.285958e-55	2.776107e-55	1.725234e-55	1.801187e-55	1.193558e-55	1.437695e-55
2.219524e-07	2.639353e-55	2.115394e+02	3.526259e-55	2.191421e-55	2.287899e-55	1.516078e-55	1.826184e-55
2.403731e-07	3.352552e-55	3.650236e+06	4.479114e-55	2.783581e-55	2.906128e-55	4.139407e-25	2.319651e-55
2.603226e-07	4.258468e-55	7.617252e+02	5.689447e-55	3.535752e-55	3.691414e-55	2.446118e-55	2.946460e-55
2.819278e-07	5.409179e-55	9.555143e+02	7.226833e-55	4.491173e-55	4.688897e-55	7.924995e+08	3.742644e-55
3.053260e-07	6.870832e-55	1.417221e-54	9.179647e-55	5.704764e-55	5.955917e-55	2.045590e-11	4.753970e-55
3.306662e-07	8.727449e-55	1.578393e+03	1.166015e-54	7.246289e-55	7.565308e-55	5.013156e-55	6.038574e-55
3.581095e-07	1.108575e-54	4.457960e-02	1.481092e-54	9.204361e-55	9.609584e-55	6.367797e-55	7.670300e-55
3.878303e-07	1.408132e-54	6.013734e-02	1.881308e-54	1.169154e-54	1.220626e-54	2.898174e+05	9.742947e-55
4.200179e-07	1.788633e-54	3.689347e-54	2.389670e-54	1.485079e-54	1.550460e-54	5.681562e+07	1.237566e-54
4.548768e-07	2.271952e-54	9.933847e-02	3.035399e-54	1.886373e-54	1.969421e-54	4.260745e-09	1.571977e-54
4.926287e-07	2.885872e-54	4.006384e-24	3.855616e-54	2.396103e-54	2.501592e-54	1.853384e-09	1.996752e-54
5.335139e-07	3.665684e-54	5.346594e-24	4.897469e-54	3.043571e-54	3.177565e-54	9.954266e-09	2.536309e-54
5.777923e-07	4.656215e-54	3.520903e-24	6.220849e-54	3.865996e-54	4.036197e-54	2.788569e+14	3.221663e-54
6.257455e-07	5.914404e-54	3.712508e-33	7.901829e-54	4.910654e-54	5.126846e-54	3.397308e-54	4.092212e-54
6.776785e-07	7.512577e-54	4.833581e-33	1.003704e-53	6.237597e-54	6.512208e-54	4.315319e-54	5.197997e-54
7.339216e-07	9.542605e-54	1.968318e-53	1.274922e-53	7.923102e-54	8.271918e-54	1.420854e+10	6.602585e-54
7.948326e-07	1.212118e-53	2.500191e-53	1.619428e-53	3.076462e-38	1.050713e-53	6.962557e-54	8.386717e-54
8.607988e-07	1.539653e-53	3.175786e-53	2.057025e-53	1.278354e-53	1.334634e-53	1.961665e-07	1.065295e-53
9.322398e-07	1.955694e-53	4.033937e-53	2.612868e-53	1.623787e-53	1.695275e-53	1.007909e+14	1.353156e-53
1.009610e-06	2.484155e-53	5.123976e-53	3.318910e-53	2.062562e-53	2.153367e-53	1.480283e+15	1.718802e-53
1.093401e-06	3.155417e-53	6.508562e-53	4.215736e-53	1.160771e-27	2.735244e-53	4.599764e+10	2.183252e-53
1.184147e-06	4.008064e-53	8.267287e-53	5.354900e-53	3.327845e-53	3.474353e-53	2.474181e+15	2.773204e-53
1.282424e-06	5.091112e-53	1.050125e-52	6.801885e-53	4.227085e-53	4.413183e-53	3.003439e+15	3.522571e-53
1.388857e-06	6.466818e-53	1.333887e-52	8.639871e-53	5.369316e-53	5.605701e-53	7.571911e+15	4.474430e-53
1.504124e-06	8.214262e-53	1.694326e-52	1.097451e-52	3.344130e+05	7.120457e-53	5.927564e+12	5.683498e-53
1.628957e-06	1.043390e-52	2.152161e-52	1.394001e-52	8.663131e-53	9.044527e-53	1.262661e+16	7.219276e-53
1.764150e-06	1.325331e-52	2.733712e-52	1.770684e-52	1.100406e-52	1.148851e-52	1.300685e+17	9.170048e-53
1.910564e-06	1.683459e-52	3.472408e-52	2.249154e-52	6.351659e-27	1.459291e-52	1.219475e+13	1.164795e-52
2.069129e-06	2.138358e-52	4.410712e-52	2.856913e-52	1.775451e-52	1.853616e-52	2.338104e+17	1.479543e-52
2.240854e-06	2.716179e-52	5.602562e-52	3.628900e-52	2.255209e-52	2.354495e-52	2.792853e+17	1.879341e-52
2.426831e-06	3.450137e-52	7.116471e-52	4.609491e-52	1.440607e+06	2.990719e-52	1.327373e+18	2.387171e-52
2.628243e-06	4.382423e-52	9.039463e-52	5.855055e-52	8.871752e-37	3.798863e-52	8.532647e+17	3.032225e-52
2.846371e-06	5.566629e-52	1.148208e-51	7.437190e-52	4.621901e-52	4.825381e-52	7.239831e+18	3.851584e-52
3.082602e-06	7.070827e-52	1.458473e-51	9.446847e-52	4.293289e-37	6.129281e-52	8.450839e+18	4.892348e-52
3.338439e-06	8.981486e-52	1.852578e-51	1.199955e-51	7.457213e-52	7.785518e-52	5.286761e+19	6.214344e-52
3.615509e-06	1.140844e-51	2.353176e-51	1.524203e-51	9.472279e-52	9.889298e-52	2.638772e+19	7.893566e-52
3.915574e-06	1.449119e-51	2.989045e-51	1.936069e-51	1.203185e-51	1.256156e-51	3.429891e+20	1.002654e-51
4.240542e-06	1.840696e-51	3.796736e-51	2.459228e-51	1.528306e-51	1.595590e-51	6.140523e+20	1.273589e-51
4.592481e-06	2.338084e-51	4.822679e-51	3.123753e-51	1.941281e-51	2.026746e-51	1.273881e+21	1.617734e-51
4.973629e-06	2.969874e-51	6.125849e-51	3.967844e-51	2.465848e-51	2.574408e-51	4.954866e+21	2.054873e-51
5.386409e-06	3.772384e-51	7.781159e-51	5.040024e-51	3.132163e-51	3.270057e-51	1.850491e+22	2.610135e-51
5.833448e-06	4.791747e-51	9.883761e-51	6.401925e-51	3.978527e-51	4.153682e-51	2.380942e+22	3.315439e-51
6.317588e-06	6.086560e-51	1.255452e-50	8.131834e-51	5.053592e-51	5.276078e-51	1.782966e+23	4.211327e-51
6.841909e-06	7.731252e-51	1.594697e-50	1.032919e-50	6.419160e-51	6.701764e-51	2.979196e+23	5.349300e-51
7.409746e-06	9.820369e-51	2.025611e-50	1.312032e-50	8.153727e-51	8.512696e-51	1.631739e+24	6.794772e-51
8.024709e-06	1.247400e-50	2.572966e-50	1.666566e-50	1.035700e-50	1.081297e-50	1.521551e+24	8.630836e-51
8.690710e-06	1.584469e-50	3.268226e-50	2.116900e-50	1.315564e-50	1.373482e-50	1.223349e+25	1.096304e-50
9.411986e-06	2.012620e-50	4.151356e-50	2.688923e-50	1.671052e-50	1.744621e-50	1.357794e+25	1.392544e-50
1.019312e-05	2.556464e-50	5.273124e-50	3.415516e-50	2.122599e-50	2.216047e-50	5.901178e+25	1.768833e-50
1.103909e-05	3.247264e-50	6.698012e-50	4.338446e-50	2.696162e-50	2.814861e-50	2.212689e+26	2.246801e-50
1.195527e-05	4.124730e-50	8.507929e-50	5.510769e-50	3.424711e-50	3.575484e-50	1.801197e+26	2.853926e-50
1.294748e-05	5.239303e-50	1.080692e-49	6.999873e-50	4.350126e-50	4.541641e-50	1.009649e+27	3.625105e-50
1.402204e-05	6.655052e-50	1.372713e-49	8.891359e-50	5.525605e-50	5.768871e-50	2.448002e+27	4.604671e-50
1.518578e-05	8.453362e-50	1.743644e-49	1.129396e-49	7.018718e-50	7.327718e-50	1.713667e+27	5.848932e-50
1.644611e-05	1.073760e-49	2.214806e-49	1.434578e-49	8.915296e-50	9.307793e-50	8.397703e+27	7.429413e-50
1.781103e-05	1.363909e-49	2.813285e-49	1.822225e-49	1.132436e-49	1.182292e-49	8.855452e+27	9.436968e-50
1.928924e-05	1.732460e-49	3.573482e-49	2.314621e-49	1.438440e-49	1.501767e-49	1.218889e+28	1.198700e-49
2.089013e-05	2.200601e-49	4.539098e-49	2.940072e-49	1.827131e-49	1.907570e-49	1.264053e-49	1.522609e-49
2.262388e-05	2.795241e-49	5.765641e-49	3.734529e-49	2.320853e-49	2.423029e-49	2.479469e+28	1.934044e-49
2.450152e-05	3.550563e-49	7.323615e-49	4.743663e-49	2.947987e-49	3.077773e-49	4.708260e+28	2.456656e-49
2.653500e-05	4.509986e-49	9.302582e-49	6.025482e-49	3.744583e-49	3.909439e-49	1.042438e+29	3.120486e-49
2.873724e-05	5.728661e-49	1.181630e-48	7.653671e-49	4.756434e-49	4.965837e-49	6.895677e+28	3.963695e-49
3.112226e-05	7.276643e-49	1.500926e-48	9.721824e-49	6.041704e-49	6.307691e-49	6.432442e+28	5.034753e-49
3.370521e-05	9.242917e-49	1.906502e-48	1.234883e-48	7.674276e-49	8.012137e-49	1.577386e+29	6.395230e-49
3.650254e-05	1.174051e-48	2.421672e-48	1.568569e-48	9.747996e-49	1.017715e-48	1.517622e+29	8.123330e-49
3.953202e-05	1.491300e-48	3.076049e-48	1.992423e-48	1.238207e-48	1.292719e-48	1.330731e+29	1.031839e-48
4.281294e-05	1.894275e-48	3.907250e-48	2.530810e-48	1.572792e-48	1.642034e-48	1.079252e+29	1.310660e-48
4.636615e-05	2.406140e-48	4.963056e-48	3.214678e-48	1.997787e-48	2.085740e-48	8.112343e+28	1.664823e-48
5.021425e-05	3.056320e-48	6.304159e-48	4.083340e-48	2.537624e-48	2.649343e-48	4.832482e+28	2.114686e-48
5.438172e-05	3.882190e-48	8.007651e-48	5.186728e-48	3.223333e-48	3.365241e-48	1.517806e+28	2.686111e-48
5.889507e-05	4.931225e-48	1.017146e-47	6.588271e-48	4.094333e-48	4.274586e-48	1.303565e+28	3.411944e-48
6.378300e-05	6.263726e-48	1.291996e-47	8.368534e-48	5.200691e-48	5.429653e-48	7.534370e+27	4.333910e-48
6.907660e-05	7.956292e-48	1.641115e-47	1.062986e-47	6.606007e-48	6.896838e-48	3.889334e+27	5.505006e-48
7.480953e-05	1.010622e-47	2.084572e-47	1.350222e-47	8.391064e-48	8.760481e-48	1.768631e+27	6.992553e-48
8.101826e-05	1.283709e-47	2.647860e-47	1.715076e-47	1.065847e-47	1.112771e-47	6.961771e+26	8.882060e-48
8.774228e-05	1.630589e-47	3.363357e-47	2.178518e-47	1.353857e-47	1.413461e-47	2.306639e+26	1.128215e-47
9.502434e-05	2.071202e-47	4.272193e-47	2.767191e-47	1.719693e-47	1.795403e-47	6.246929e+25	1.433077e-47
1.029108e-04	2.630877e-47	5.426613e-47	3.514934e-47	2.184383e-47	2.280551e-47	1.332750e+25	1.820319e-47
1.114517e-04	3.341785e-47	6.892976e-47	4.464729e-47	2.774641e-47	2.896795e-47	2.131302e+24	2.312201e-47
1.207015e-04	4.244792e-47	8.755577e-47	5.671175e-47	3.524397e-47	3.679559e-47	2.550979e+23	2.936997e-47
1.307190e-04	5.391808e-47	1.112148e-46	7.203624e-47	4.476749e-47	4.673838e-47	3.097122e-47	3.730624e-47
1.415679e-04	6.848766e-47	1.412670e-46	9.150166e-47	5.686443e-47	5.936790e-47	7.916521e+20	4.738703e-47
1.533172e-04	8.699420e-47	1.794397e-46	1.162270e-46	7.223017e-47	7.541012e-47	4.997056e-47	6.019181e-47
1.660416e-04	1.105015e-46	2.279274e-46	1.476335e-46	9.174800e-47	9.578722e-47	6.347346e-47	7.645667e-47
1.798220e-04	1.403609e-46	2.895173e-46	1.875266e-46	1.165399e-46	1.216706e-46	8.062508e-47	9.711657e-47
1.947461e-04	1.782889e-46	3.677499e-46	2.381995e-46	1.480310e-46	1.545480e-46	1.024114e-46	1.233591e-46
2.109088e-04	2.264656e-46	4.671222e-46	3.025651e-46	1.880315e-46	1.963096e-46	1.300847e-46	1.566929e-46
2.284130e-04	2.876604e-46	5.933466e-46	3.843233e-46	2.388408e-46	2.493558e-46	1.652358e-46	1.990340e-46
2.473698e-04	3.653912e-46	7.536790e-46	4.881741e-46	7.542251e-20	7.874300e-20	2.098853e-46	6.285209e-20
2.679000e-04	4.641262e-46	9.573359e-46	6.200871e-46	3.853580e-46	4.023235e-46	2.665999e-46	3.211317e-46
